 frequency       frequency       frequency       t               t               tmag            tphase         
 1.00000000e+00  1.00000000e+00  0.00000000e+00  2.45064860e+03 -6.83423046e+00  6.77856546e+01 -1.59782821e-01 
 1.12201845e+00  1.12201845e+00  0.00000000e+00  2.45064366e+03 -7.66811724e+00  6.77856459e+01 -1.79279153e-01 
 1.25892541e+00  1.25892541e+00  0.00000000e+00  2.45063745e+03 -8.60374723e+00  6.77856348e+01 -2.01154348e-01 
 1.41253754e+00  1.41253754e+00  0.00000000e+00  2.45062963e+03 -9.65353234e+00  6.77856210e+01 -2.25698651e-01 
 1.58489319e+00  1.58489319e+00  0.00000000e+00  2.45061978e+03 -1.08313979e+01  6.77856035e+01 -2.53237712e-01 
 1.77827941e+00  1.77827941e+00  0.00000000e+00  2.45060738e+03 -1.21529668e+01  6.77855815e+01 -2.84136906e-01 
 1.99526231e+00  1.99526231e+00  0.00000000e+00  2.45059177e+03 -1.36357661e+01  6.77855539e+01 -3.18806175e-01 
 2.23872114e+00  2.23872114e+00  0.00000000e+00  2.45057212e+03 -1.52994585e+01  6.77855190e+01 -3.57705455e-01 
 2.51188643e+00  2.51188643e+00  0.00000000e+00  2.45054738e+03 -1.71661014e+01  6.77854752e+01 -4.01350770e-01 
 2.81838293e+00  2.81838293e+00  0.00000000e+00  2.45051623e+03 -1.92604377e+01  6.77854200e+01 -4.50321061e-01 
 3.16227766e+00  3.16227766e+00  0.00000000e+00  2.45047702e+03 -2.16102207e+01  6.77853504e+01 -5.05265845e-01 
 3.54813389e+00  3.54813389e+00  0.00000000e+00  2.45042767e+03 -2.42465779e+01  6.77852629e+01 -5.66913793e-01 
 3.98107171e+00  3.98107171e+00  0.00000000e+00  2.45036553e+03 -2.72044178e+01  6.77851528e+01 -6.36082358e-01 
 4.46683592e+00  4.46683592e+00  0.00000000e+00  2.45028732e+03 -3.05228841e+01  6.77850141e+01 -7.13688544e-01 
 5.01187234e+00  5.01187234e+00  0.00000000e+00  2.45018885e+03 -3.42458625e+01  6.77848395e+01 -8.00760983e-01 
 5.62341325e+00  5.62341325e+00  0.00000000e+00  2.45006491e+03 -3.84225453e+01  6.77846197e+01 -8.98453439e-01 
 6.30957344e+00  6.30957344e+00  0.00000000e+00  2.44990888e+03 -4.31080586e+01  6.77843431e+01 -1.00805992e+00 
 7.07945784e+00  7.07945784e+00  0.00000000e+00  2.44971249e+03 -4.83641587e+01  6.77839948e+01 -1.13103159e+00 
 7.94328235e+00  7.94328235e+00  0.00000000e+00  2.44946530e+03 -5.42600008e+01  6.77835564e+01 -1.26899560e+00 
 8.91250938e+00  8.91250938e+00  0.00000000e+00  2.44915416e+03 -6.08729865e+01  6.77830045e+01 -1.42377615e+00 
 1.00000000e+01  1.00000000e+01  0.00000000e+00  2.44876259e+03 -6.82896902e+01  6.77823099e+01 -1.59741790e+00 
 1.12201845e+01  1.12201845e+01  0.00000000e+00  2.44826980e+03 -7.66068678e+01  6.77814355e+01 -1.79221203e+00 
 1.25892541e+01  1.25892541e+01  0.00000000e+00  2.44764969e+03 -8.59325411e+01  6.77803350e+01 -2.01072504e+00 
 1.41253754e+01  1.41253754e+01  0.00000000e+00  2.44686947e+03 -9.63871519e+01  6.77789499e+01 -2.25583065e+00 
 1.58489319e+01  1.58489319e+01  0.00000000e+00  2.44588794e+03 -1.08104766e+02  6.77772068e+01 -2.53074482e+00 
 1.77827941e+01  1.77827941e+01  0.00000000e+00  2.44465339e+03 -1.21234297e+02  6.77750134e+01 -2.83906408e+00 
 1.99526231e+01  1.99526231e+01  0.00000000e+00  2.44310095e+03 -1.35940707e+02  6.77722537e+01 -3.18480713e+00 
 2.23872114e+01  2.23872114e+01  0.00000000e+00  2.44114934e+03 -1.52406097e+02  6.77687819e+01 -3.57245951e+00 
 2.51188643e+01  2.51188643e+01  0.00000000e+00  2.43869685e+03 -1.70830596e+02  6.77644150e+01 -4.00702099e+00 
 2.81838293e+01  2.81838293e+01  0.00000000e+00  2.43561635e+03 -1.91432878e+02  6.77589238e+01 -4.49405492e+00 
 3.16227766e+01  3.16227766e+01  0.00000000e+00  2.43174927e+03 -2.14450075e+02  6.77520205e+01 -5.03973815e+00 
 3.54813389e+01  3.54813389e+01  0.00000000e+00  2.42689835e+03 -2.40136784e+02  6.77433454e+01 -5.65090965e+00 
 3.98107171e+01  3.98107171e+01  0.00000000e+00  2.42081885e+03 -2.68762712e+02  6.77324487e+01 -6.33511464e+00 
 4.46683592e+01  4.46683592e+01  0.00000000e+00  2.41320841e+03 -3.00608372e+02  6.77187693e+01 -7.10064002e+00 
 5.01187234e+01  5.01187234e+01  0.00000000e+00  2.40369523e+03 -3.35958039e+02  6.77016090e+01 -7.95653464e+00 
 5.62341325e+01  5.62341325e+01  0.00000000e+00  2.39182500e+03 -3.75088954e+02  6.76801014e+01 -8.91260579e+00 
 6.30957344e+01  6.30957344e+01  0.00000000e+00  2.37704700e+03 -4.18255522e+02  6.76531756e+01 -9.97938026e+00 
 7.07945784e+01  7.07945784e+01  0.00000000e+00  2.35870035e+03 -4.65667017e+02  6.76195136e+01 -1.11680144e+01 
 7.94328235e+01  7.94328235e+01  0.00000000e+00  2.33600224e+03 -5.17457209e+02  6.75775034e+01 -1.24901335e+01 
 8.91250938e+01  8.91250938e+01  0.00000000e+00  2.30804097e+03 -5.73644438e+02  6.75251870e+01 -1.39575773e+01 
 1.00000000e+02  1.00000000e+02  0.00000000e+00  2.27377782e+03 -6.34081218e+02  6.74602082e+01 -1.55820231e+01 
 1.12201845e+02  1.12201845e+02  0.00000000e+00  2.23206353e+03 -6.98393810e+02  6.73797633e+01 -1.73744604e+01 
 1.25892541e+02  1.25892541e+02  0.00000000e+00  2.18167633e+03 -7.65914569e+02  6.72805631e+01 -1.93444911e+01 
 1.41253754e+02  1.41253754e+02  0.00000000e+00  2.12138910e+03 -8.35613670e+02  6.71588155e+01 -2.14994454e+01 
 1.58489319e+02  1.58489319e+02  0.00000000e+00  2.05007208e+03 -9.06041897e+02  6.70102434e+01 -2.38433253e+01 
 1.77827941e+02  1.77827941e+02  0.00000000e+00  1.96683312e+03 -9.75301842e+02  6.68301516e+01 -2.63756275e+01 
 1.99526231e+02  1.99526231e+02  0.00000000e+00  1.87118910e+03 -1.04106925e+03  6.66135580e+01 -2.90901513e+01 
 2.23872114e+02  2.23872114e+02  0.00000000e+00  1.76324916e+03 -1.10068627e+03  6.63553983e+01 -3.19739569e+01 
 2.51188643e+02  2.51188643e+02  0.00000000e+00  1.64387615e+03 -1.15134044e+03  6.60508015e+01 -3.50066874e+01 
 2.81838293e+02  2.81838293e+02  0.00000000e+00  1.51478161e+03 -1.19032498e+03  6.56954208e+01 -3.81604874e+01 
 3.16227766e+02  3.16227766e+02  0.00000000e+00  1.37851006e+03 -1.21535003e+03  6.52857808e+01 -4.14007000e+01 
 3.54813389e+02  3.54813389e+02  0.00000000e+00  1.23828634e+03 -1.22484799e+03  6.48195913e+01 -4.46874092e+01 
 3.98107171e+02  3.98107171e+02  0.00000000e+00  1.09773355e+03 -1.21820360e+03  6.42959709e+01 -4.79777188e+01 
 4.46683592e+02  4.46683592e+02  0.00000000e+00  9.60508672e+02 -1.19584855e+03  6.37155375e+01 -5.12284786e+01 
 5.01187234e+02  5.01187234e+02  0.00000000e+00  8.29931081e+02 -1.15919483e+03  6.30803446e+01 -5.43990494e+01 
 5.62341325e+02  5.62341325e+02  0.00000000e+00  7.08681346e+02 -1.11042513e+03  6.23936787e+01 -5.74536868e+01 
 6.30957344e+02  6.30957344e+02  0.00000000e+00  5.98623847e+02 -1.05219560e+03  6.16597578e+01 -6.03632276e+01 
 7.07945784e+02  7.07945784e+02  0.00000000e+00  5.00767902e+02 -9.87320988e+02  6.08833856e+01 -6.31059367e+01 
 7.94328235e+02  7.94328235e+02  0.00000000e+00  4.15346034e+02 -9.18502221e+02  6.00696152e+01 -6.56675518e+01 
 8.91250938e+02  8.91250938e+02  0.00000000e+00  3.41967036e+02 -8.48132001e+02  5.92234618e+01 -6.80406954e+01 
 1.00000000e+03  1.00000000e+03  0.00000000e+00  2.79798224e+02 -7.78186941e+02  5.83496845e+01 -7.02238796e+01 
 1.12201845e+03  1.12201845e+03  0.00000000e+00  2.27740757e+02 -7.10194934e+02  5.74526432e+01 -7.22203264e+01 
 1.25892541e+03  1.25892541e+03  0.00000000e+00  1.84576222e+02 -6.45256710e+02  5.65362211e+01 -7.40367781e+01 
 1.41253754e+03  1.41253754e+03  0.00000000e+00  1.49076032e+02 -5.84099428e+02  5.56037991e+01 -7.56824129e+01 
 1.58489319e+03  1.58489319e+03  0.00000000e+00  1.20074690e+02 -5.27143923e+02  5.46582680e+01 -7.71679091e+01 
 1.77827941e+03  1.77827941e+03  0.00000000e+00  9.65117585e+01 -4.74573412e+02  5.37020663e+01 -7.85047873e+01 
 1.99526231e+03  1.99526231e+03  0.00000000e+00  7.74526754e+01 -4.26394966e+02  5.27372238e+01 -7.97047379e+01 
 2.23872114e+03  2.23872114e+03  0.00000000e+00  6.20920462e+01 -3.82492162e+02  5.17654175e+01 -8.07792982e+01 
 2.51188643e+03  2.51188643e+03  0.00000000e+00  4.97481529e+01 -3.42666695e+02  5.07880231e+01 -8.17395446e+01 
 2.81838293e+03  2.81838293e+03  0.00000000e+00  3.98514982e+01 -3.06670448e+02  4.98061643e+01 -8.25959650e+01 
 3.16227766e+03  3.16227766e+03  0.00000000e+00  3.19317380e+01 -2.74228952e+02  4.88207552e+01 -8.33582810e+01 
 3.54813389e+03  3.54813389e+03  0.00000000e+00  2.56034116e+01 -2.45058334e+02  4.78325395e+01 -8.40354430e+01 
 3.98107171e+03  3.98107171e+03  0.00000000e+00  2.05525873e+01 -2.18876902e+02  4.68421237e+01 -8.46356436e+01 
 4.46683592e+03  4.46683592e+03  0.00000000e+00  1.65251123e+01 -1.95412719e+02  4.58500036e+01 -8.51662725e+01 
 5.01187234e+03  5.01187234e+03  0.00000000e+00  1.33158755e+01 -1.74408381e+02  4.48565892e+01 -8.56340046e+01 
 5.62341325e+03  5.62341325e+03  0.00000000e+00  1.07598769e+01 -1.55623653e+02  4.38622236e+01 -8.60448430e+01 
 6.30957344e+03  6.30957344e+03  0.00000000e+00  8.72485197e+00 -1.38836648e+02  4.28671997e+01 -8.64041145e+01 
 7.07945784e+03  7.07945784e+03  0.00000000e+00  7.10479509e+00 -1.23844077e+02  4.18717748e+01 -8.67166047e+01 
 7.94328235e+03  7.94328235e+03  0.00000000e+00  5.81497111e+00 -1.10460796e+02  4.08761822e+01 -8.69865685e+01 
 8.91250938e+03  8.91250938e+03  0.00000000e+00  4.78767679e+00 -9.85189726e+01  3.98806418e+01 -8.72178147e+01 
 1.00000000e+04  1.00000000e+04  0.00000000e+00  3.96881901e+00 -8.78670175e+01  3.88853691e+01 -8.74137950e+01 
 1.12201845e+04  1.12201845e+04  0.00000000e+00  3.31527063e+00 -7.83683766e+01  3.78905822e+01 -8.75776221e+01 
 1.25892541e+04  1.25892541e+04  0.00000000e+00  2.79254209e+00 -6.99003067e+01  3.68965076e+01 -8.77122298e+01 
 1.41253754e+04  1.41253754e+04  0.00000000e+00  2.37308709e+00 -6.23526413e+01  3.59033833e+01 -8.78204246e+01 
 1.58489319e+04  1.58489319e+04  0.00000000e+00  2.03487312e+00 -5.56266072e+01  3.49114591e+01 -8.79050012e+01 
 1.77827941e+04  1.77827941e+04  0.00000000e+00  1.76026363e+00 -4.96337024e+01  3.39209924e+01 -8.79688514e+01 
 1.99526231e+04  1.99526231e+04  0.00000000e+00  1.53512572e+00 -4.42946488e+01  3.29322385e+01 -8.80150868e+01 
 2.23872114e+04  2.23872114e+04  0.00000000e+00  1.34815070e+00 -3.95384270e+01  3.19454340e+01 -8.80471294e+01 
 2.51188643e+04  2.51188643e+04  0.00000000e+00  1.19032353e+00 -3.53013990e+01  3.09607733e+01 -8.80687823e+01 
 2.81838293e+04  2.81838293e+04  0.00000000e+00  1.05452582e+00 -3.15265241e+01  2.99783781e+01 -8.80842366e+01 
 3.16227766e+04  3.16227766e+04  0.00000000e+00  9.35235367e-01 -2.81626724e+01  2.89982640e+01 -8.80980017e+01 
 3.54813389e+04  3.54813389e+04  0.00000000e+00  8.28304583e-01 -2.51640367e+01  2.80203091e+01 -8.81147211e+01 
 3.98107171e+04  3.98107171e+04  0.00000000e+00  7.30779787e-01 -2.24896406e+01  2.70442334e+01 -8.81388822e+01 
 4.46683592e+04  4.46683592e+04  0.00000000e+00  6.40729885e-01 -2.01029306e+01  2.60695970e+01 -8.81744605e+01 
 5.01187234e+04  5.01187234e+04  0.00000000e+00  5.57068671e-01 -1.79714296e+01  2.50958234e+01 -8.82245449e+01 
 5.62341325e+04  5.62341325e+04  0.00000000e+00  4.79355212e-01 -1.60664221e+01  2.41222477e+01 -8.82910392e+01 
 6.30957344e+04  6.30957344e+04  0.00000000e+00  4.07577212e-01 -1.43626423e+01  2.31481828e+01 -8.83745199e+01 
 7.07945784e+04  7.07945784e+04  0.00000000e+00  3.41940263e-01 -1.28379445e+01  2.21729898e+01 -8.84742805e+01 
 7.94328235e+04  7.94328235e+04  0.00000000e+00  2.82682753e-01 -1.14729513e+01  2.11961388e+01 -8.85885713e+01 
 8.91250938e+04  8.91250938e+04  0.00000000e+00  2.29942485e-01 -1.02506902e+01  2.02172469e+01 -8.87149622e+01 
 1.00000000e+05  1.00000000e+05  0.00000000e+00  1.83684245e-01 -9.15624119e+00  1.92360919e+01 -8.88507380e+01 
 1.12201845e+05  1.12201845e+05  0.00000000e+00  1.43681244e-01 -8.17641660e+00  1.82526011e+01 -8.89932654e+01 
 1.25892541e+05  1.25892541e+05  0.00000000e+00  1.09538598e-01 -7.29948752e+00  1.72668253e+01 -8.91402645e+01 
 1.41253754e+05  1.41253754e+05  0.00000000e+00  8.07394418e-02 -6.51496238e+00  1.62789052e+01 -8.92899740e+01 
 1.58489319e+05  1.58489319e+05  0.00000000e+00  5.66971836e-02 -5.81341388e+00  1.52890379e+01 -8.94412222e+01 
 1.77827941e+05  1.77827941e+05  0.00000000e+00  3.68035822e-02 -5.18634580e+00  1.42974481e+01 -8.95934219e+01 
 1.99526231e+05  1.99526231e+05  0.00000000e+00  2.04659845e-02 -4.62608954e+00  1.33043657e+01 -8.97465231e+01 
 2.23872114e+05  2.23872114e+05  0.00000000e+00  7.13264699e-03 -4.12572147e+00  1.23100111e+01 -8.99009458e+01 
 2.51188643e+05  2.51188643e+05  0.00000000e+00 -3.69247846e-03 -3.67899387e+00  1.13145857e+01 -9.00575058e+01 
 2.81838293e+05  2.81838293e+05  0.00000000e+00 -1.24438661e-02 -3.28027491e+00  1.03182673e+01 -9.02173530e+01 
 3.16227766e+05  3.16227766e+05  0.00000000e+00 -1.94941637e-02 -2.92449447e+00  9.32120905e+00 -9.03819179e+01 
 3.54813389e+05  3.54813389e+05  0.00000000e+00 -2.51579709e-02 -2.60709437e+00  8.32353942e+00 -9.05528763e+01 
 3.98107171e+05  3.98107171e+05  0.00000000e+00 -2.96974594e-02 -2.32398201e+00  7.32536435e+00 -9.07321255e+01 
 4.46683592e+05  4.46683592e+05  0.00000000e+00 -3.33289928e-02 -2.07148724e+00  6.32676937e+00 -9.09217753e+01 
 5.01187234e+05  5.01187234e+05  0.00000000e+00 -3.62296436e-02 -1.84632221e+00  5.32782180e+00 -9.11241479e+01 
 5.62341325e+05  5.62341325e+05  0.00000000e+00 -3.85434626e-02 -1.64554416e+00  4.32857289e+00 -9.13417896e+01 
 6.30957344e+05  6.30957344e+05  0.00000000e+00 -4.03870190e-02 -1.46652122e+00  3.32905956e+00 -9.15774889e+01 
 7.07945784e+05  7.07945784e+05  0.00000000e+00 -4.18542635e-02 -1.30690098e+00  2.32930571e+00 -9.18343037e+01 
 7.94328235e+05  7.94328235e+05  0.00000000e+00 -4.30206441e-02 -1.16458191e+00  1.32932322e+00 -9.21155927e+01 
 8.91250938e+05  8.91250938e+05  0.00000000e+00 -4.39465668e-02 -1.03768727e+00  3.29112147e-01 -9.24250553e+01 
 1.00000000e+06  1.00000000e+06  0.00000000e+00 -4.46802585e-02 -9.24541641e-01 -6.71339388e-01 -9.27667765e+01 
 1.12201845e+06  1.12201845e+06  0.00000000e+00 -4.52601080e-02 -8.23649611e-01 -1.67205595e+00 -9.31452789e+01 
 1.25892541e+06  1.25892541e+06  0.00000000e+00 -4.57165570e-02 -7.33676653e-01 -2.67307617e+00 -9.35655810e+01 
 1.41253754e+06  1.41253754e+06  0.00000000e+00 -4.60736348e-02 -6.53431901e-01 -3.67445505e+00 -9.40332635e+01 
 1.58489319e+06  1.58489319e+06  0.00000000e+00 -4.63501779e-02 -5.81852719e-01 -4.67626686e+00 -9.45545435e+01 
 1.77827941e+06  1.77827941e+06  0.00000000e+00 -4.65607926e-02 -5.17990855e-01 -5.67860936e+00 -9.51363584e+01 
 1.99526231e+06  1.99526231e+06  0.00000000e+00 -4.67166098e-02 -4.61000038e-01 -6.68160924e+00 -9.57864597e+01 
 2.23872114e+06  2.23872114e+06  0.00000000e+00 -4.68258583e-02 -4.10124898e-01 -7.68542917e+00 -9.65135190e+01 
 2.51188643e+06  2.51188643e+06  0.00000000e+00 -4.68942922e-02 -3.64691039e-01 -8.69027714e+00 -9.73272481e+01 
 2.81838293e+06  2.81838293e+06  0.00000000e+00 -4.69254852e-02 -3.24096181e-01 -9.69641836e+00 -9.82385331e+01 
 3.16227766e+06  3.16227766e+06  0.00000000e+00 -4.69210124e-02 -2.87802251e-01 -1.07041905e+01 -9.92595879e+01 
 3.54813389e+06  3.54813389e+06  0.00000000e+00 -4.68805255e-02 -2.55328321e-01 -1.17140238e+01 -1.00404127e+02 
 3.98107171e+06  3.98107171e+06  0.00000000e+00 -4.68017259e-02 -2.26244328e-01 -1.27264667e+01 -1.01687561e+02 
 4.46683592e+06  4.46683592e+06  0.00000000e+00 -4.66802406e-02 -2.00165489e-01 -1.37422193e+01 -1.03127225e+02 
 5.01187234e+06  5.01187234e+06  0.00000000e+00 -4.65093873e-02 -1.76747352e-01 -1.47621778e+01 -1.04742631e+02 
 5.62341325e+06  5.62341325e+06  0.00000000e+00 -4.62798260e-02 -1.55681451e-01 -1.57874930e+01 -1.06555770e+02 
 6.30957344e+06  6.30957344e+06  0.00000000e+00 -4.59790694e-02 -1.36691504e-01 -1.68196502e+01 -1.08591451e+02 
 7.07945784e+06  7.07945784e+06  0.00000000e+00 -4.55908104e-02 -1.19530161e-01 -1.78605795e+01 -1.10877691e+02 
 7.94328235e+06  7.94328235e+06  0.00000000e+00 -4.50940022e-02 -1.03976328e-01 -1.89128125e+01 -1.13446131e+02 
 8.91250938e+06  8.91250938e+06  0.00000000e+00 -4.44615982e-02 -8.98331910e-02 -1.99797069e+01 -1.16332423e+02 
 1.00000000e+07  1.00000000e+07  0.00000000e+00 -4.36588972e-02 -7.69272420e-02 -2.10657672e+01 -1.19576424e+02 
 1.12201845e+07  1.12201845e+07  0.00000000e+00 -4.26416351e-02 -6.51088392e-02 -2.21770873e+01 -1.23221932e+02 
 1.25892541e+07  1.25892541e+07  0.00000000e+00 -4.13544495e-02 -5.42549619e-02 -2.33219309e+01 -1.27315530e+02 
 1.41253754e+07  1.41253754e+07  0.00000000e+00 -3.97310226e-02 -4.42745165e-02 -2.45114558e+01 -1.31904137e+02 
 1.58489319e+07  1.58489319e+07  0.00000000e+00 -3.76974706e-02 -3.51157704e-02 -2.57606364e+01 -1.37030655e+02 
 1.77827941e+07  1.77827941e+07  0.00000000e+00 -3.51805242e-02 -2.67751513e-02 -2.70894699e+01 -1.42726006e+02 
 1.99526231e+07  1.99526231e+07  0.00000000e+00 -3.21233315e-02 -1.93061431e-02 -2.85243633e+01 -1.48994105e+02 
 2.23872114e+07  2.23872114e+07  0.00000000e+00 -2.85131159e-02 -1.28228348e-02 -3.00991750e+01 -1.55785737e+02 
 2.51188643e+07  2.51188643e+07  0.00000000e+00 -2.44201213e-02 -7.48596041e-03 -3.18549808e+01 -1.62957139e+02 
 2.81838293e+07  2.81838293e+07  0.00000000e+00 -2.00352131e-02 -3.45796110e-03 -3.38366393e+01 -1.70207556e+02 
 3.16227766e+07  3.16227766e+07  0.00000000e+00 -1.56790446e-02 -8.23132706e-04 -3.60816548e+01 -1.76994793e+02 
 3.54813389e+07  3.54813389e+07  0.00000000e+00 -1.17477130e-02  5.04144372e-04 -3.85929427e+01 -1.82457298e+02 
 3.98107171e+07  3.98107171e+07  0.00000000e+00 -8.58533293e-03  8.20939697e-04 -4.12853283e+01 -1.85462083e+02 
 4.46683592e+07  4.46683592e+07  0.00000000e+00 -6.34497769e-03  5.65785151e-04 -4.39170021e+01 -1.85095619e+02 
 5.01187234e+07  5.01187234e+07  0.00000000e+00 -4.94234502e-03  1.60964557e-04 -4.61167347e+01 -1.81865376e+02 
 5.62341325e+07  5.62341325e+07  0.00000000e+00 -4.13673199e-03 -1.21594930e-04 -4.76631016e+01 -1.78316335e+02 
 6.30957344e+07  6.30957344e+07  0.00000000e+00 -3.66300702e-03 -1.89166014e-04 -4.87116781e+01 -1.77043742e+02 
 7.07945784e+07  7.07945784e+07  0.00000000e+00 -3.32195185e-03 -7.18199321e-05 -4.95701038e+01 -1.78761470e+02 
 7.94328235e+07  7.94328235e+07  0.00000000e+00 -3.00288597e-03  1.52239377e-04 -5.04380750e+01 -1.82902279e+02 
 8.91250938e+07  8.91250938e+07  0.00000000e+00 -2.66450733e-03  4.07260163e-04 -5.13873687e+01 -1.88690193e+02 
 1.00000000e+08  1.00000000e+08  0.00000000e+00 -2.30537897e-03  6.40763086e-04 -5.24219799e+01 -1.95532879e+02 
 1.12201845e+08  1.12201845e+08  0.00000000e+00 -1.94044184e-03  8.25328544e-04 -5.35198349e+01 -2.03041515e+02 
 1.25892541e+08  1.25892541e+08  0.00000000e+00 -1.58715084e-03  9.52478118e-04 -5.46517939e+01 -2.10968736e+02 
 1.41253754e+08  1.41253754e+08  0.00000000e+00 -1.25923571e-03  1.02527380e-03 -5.57891277e+01 -2.19152593e+02 
 1.58489319e+08  1.58489319e+08  0.00000000e+00 -9.65038929e-04  1.05238018e-03 -5.69062449e+01 -2.27478990e+02 
 1.77827941e+08  1.77827941e+08  0.00000000e+00 -7.08048402e-04  1.04416803e-03 -5.79816077e+01 -2.35858877e+02 
 1.99526231e+08  1.99526231e+08  0.00000000e+00 -4.88180103e-04  1.01054046e-03 -5.89979774e+01 -2.44215363e+02 
 2.23872114e+08  2.23872114e+08  0.00000000e+00 -3.03087517e-04  9.59943141e-04 -5.99423930e+01 -2.52477277e+02 
 2.51188643e+08  2.51188643e+08  0.00000000e+00 -1.49215434e-04  8.99081729e-04 -6.08060117e+01 -2.60576839e+02 
 2.81838293e+08  2.81838293e+08  0.00000000e+00 -2.25426017e-05  8.33007533e-04 -6.15838421e+01 -2.68449857e+02 
 3.16227766e+08  3.16227766e+08  0.00000000e+00  8.09462679e-05  7.65360539e-04 -6.22743697e+01 -2.76037288e+02 
 3.54813389e+08  3.54813389e+08  0.00000000e+00  1.64991448e-04  6.98652544e-04 -6.28790821e+01 -2.83287338e+02 
 3.98107171e+08  3.98107171e+08  0.00000000e+00  2.32927669e-04  6.34532835e-04 -6.34019099e+01 -2.90157443e+02 
 4.46683592e+08  4.46683592e+08  0.00000000e+00  2.87641264e-04  5.74013370e-04 -6.38486162e+01 -2.96615702e+02 
 5.01187234e+08  5.01187234e+08  0.00000000e+00  3.31578665e-04  5.17648607e-04 -6.42261795e+01 -3.02641503e+02 
